Energy,keV Raw_signal Basic_conv,sigma=50 Wiener_deconv Broaden_gauss_simple_conv,dE/E=0.01 simple_deconv numeric_deconv
     0.000e+00      4.158e+00      1.165e+00      2.023e-01      0.000e+00      0.000e+00      4.432e+00
     2.000e-03      3.507e+00      1.178e+00      2.082e-01      3.729e-01      3.488e+02      4.432e+00
     4.000e-03      2.855e+00      1.190e+00      2.133e-01      3.036e-01      1.420e+02      3.020e+00
     6.000e-03      2.358e+00      1.201e+00      2.176e-01      2.508e-01      7.818e+01      2.330e+00
     8.000e-03      2.016e+00      1.210e+00      2.212e-01      2.144e-01      5.012e+01      1.840e+00
     1.000e-02      1.674e+00      1.217e+00      2.239e-01      1.780e-01      3.329e+01      1.621e+00
     1.200e-02      1.492e+00      1.223e+00      2.259e-01      1.587e-01      2.474e+01      1.394e+00
     1.400e-02      1.311e+00      1.227e+00      2.271e-01      1.395e-01      1.863e+01      1.280e+00
     1.600e-02      1.167e+00      1.230e+00      2.276e-01      1.241e-01      1.451e+01      1.118e+00
     1.800e-02      1.058e+00      1.231e+00      2.274e-01      1.126e-01      1.170e+01      1.033e+00
     2.000e-02      9.502e-01      1.231e+00      2.266e-01      1.010e-01      9.451e+00      9.089e-01
     2.200e-02      8.579e-01      1.229e+00      2.251e-01      9.124e-02      7.757e+00      8.375e-01
     2.400e-02      7.657e-01      1.225e+00      2.230e-01      8.143e-02      6.346e+00      7.395e-01
     2.600e-02      6.938e-01      1.220e+00      2.203e-01      7.379e-02      5.308e+00      6.852e-01
     2.800e-02      6.423e-01      1.214e+00      2.171e-01      6.831e-02      4.564e+00      6.148e-01
     3.000e-02      5.909e-01      1.206e+00      2.135e-01      6.284e-02      3.918e+00      5.736e-01
     3.200e-02      5.392e-01      1.197e+00      2.095e-01      5.735e-02      3.352e+00      5.169e-01
     3.400e-02      4.876e-01      1.186e+00      2.050e-01      5.186e-02      2.853e+00      4.824e-01
     3.600e-02      4.518e-01      1.175e+00      2.003e-01      4.805e-02      2.497e+00      4.412e-01
     3.800e-02      4.317e-01      1.161e+00      1.953e-01      4.591e-02      2.260e+00      4.202e-01
     4.000e-02      4.117e-01      1.147e+00      1.901e-01      4.378e-02      2.047e+00      3.920e-01
     4.200e-02      3.847e-01      1.132e+00      1.847e-01      4.091e-02      1.822e+00      3.730e-01
     4.400e-02      3.577e-01      1.116e+00      1.792e-01      3.804e-02      1.617e+00      3.457e-01
     4.600e-02      3.340e-01      1.099e+00      1.736e-01      3.552e-02      1.444e+00      3.261e-01
     4.800e-02      3.137e-01      1.081e+00      1.679e-01      3.336e-02      1.300e+00      3.038e-01
     5.000e-02      2.934e-01      1.062e+00      1.623e-01      3.120e-02      1.167e+00      2.898e-01
     5.200e-02      2.849e-01      1.043e+00      1.567e-01      3.030e-02      1.090e+00      2.762e-01
     5.400e-02      2.765e-01      1.022e+00      1.513e-01      2.940e-02      1.018e+00      2.680e-01
     5.600e-02      2.674e-01      1.002e+00      1.459e-01      2.844e-02      9.500e-01      2.587e-01
     5.800e-02      2.579e-01      9.807e-01      1.407e-01      2.742e-02      8.844e-01      2.508e-01
     6.000e-02      2.483e-01      9.592e-01      1.357e-01      2.640e-02      8.231e-01      2.418e-01
     6.200e-02      2.382e-01      9.374e-01      1.309e-01      2.533e-02      7.642e-01      2.329e-01
     6.400e-02      2.281e-01      9.153e-01      1.263e-01      2.426e-02      7.089e-01      2.243e-01
     6.600e-02      2.184e-01      8.931e-01      1.221e-01      2.323e-02      6.583e-01      2.153e-01
     6.800e-02      2.092e-01      8.708e-01      1.181e-01      2.225e-02      6.120e-01      2.082e-01
     7.000e-02      2.000e-01      8.484e-01      1.144e-01      2.127e-02      5.684e-01      2.003e-01
     7.200e-02      1.939e-01      8.261e-01      1.110e-01      2.063e-02      5.358e-01      1.954e-01
     7.400e-02      1.879e-01      8.038e-01      1.080e-01      1.998e-02      5.051e-01      1.881e-01
     7.600e-02      1.801e-01      7.817e-01      1.053e-01      1.916e-02      4.715e-01      1.835e-01
     7.800e-02      1.707e-01      7.598e-01      1.029e-01      1.815e-02      4.353e-01      1.761e-01
     8.000e-02      1.612e-01      7.381e-01      1.009e-01      1.714e-02      4.008e-01      1.742e-01
     8.200e-02      1.632e-01      7.168e-01      9.925e-02      1.736e-02      3.960e-01      1.714e-01
     8.400e-02      1.652e-01      6.957e-01      9.793e-02      1.757e-02      3.913e-01      1.744e-01
     8.600e-02      1.635e-01      6.751e-01      9.696e-02      1.739e-02      3.783e-01      1.721e-01
     8.800e-02      1.581e-01      6.548e-01      9.632e-02      1.682e-02      3.574e-01      1.731e-01
     9.000e-02      1.527e-01      6.350e-01      9.601e-02      1.624e-02      3.375e-01      1.679e-01
     9.200e-02      1.500e-01      6.156e-01      9.601e-02      1.596e-02      3.245e-01      1.682e-01
     9.400e-02      1.474e-01      5.968e-01      9.633e-02      1.568e-02      3.120e-01      1.623e-01
     9.600e-02      1.427e-01      5.784e-01      9.693e-02      1.518e-02      2.958e-01      1.616e-01
     9.800e-02      1.360e-01      5.606e-01      9.781e-02      1.447e-02      2.762e-01      1.538e-01
     1.000e-01      1.293e-01      5.433e-01      9.895e-02      1.376e-02      2.575e-01      1.530e-01
     1.020e-01      1.278e-01      5.266e-01      1.003e-01      1.361e-02      2.495e-01      1.466e-01
     1.040e-01      1.263e-01      5.105e-01      1.020e-01      1.345e-02      2.419e-01      1.481e-01
     1.060e-01      1.238e-01      4.949e-01      1.038e-01      1.319e-02      2.327e-01      1.423e-01
     1.080e-01      1.203e-01      4.798e-01      1.058e-01      1.282e-02      2.220e-01      1.433e-01
     1.100e-01      1.167e-01      4.654e-01      1.080e-01      1.245e-02      2.117e-01      1.367e-01
     1.120e-01      1.148e-01      4.515e-01      1.103e-01      1.225e-02      2.046e-01      1.383e-01
     1.140e-01      1.129e-01      4.382e-01      1.127e-01      1.206e-02      1.979e-01      1.323e-01
     1.160e-01      1.112e-01      4.254e-01      1.153e-01      1.189e-02      1.917e-01      1.345e-01
     1.180e-01      1.097e-01      4.132e-01      1.179e-01      1.174e-02      1.861e-01      1.279e-01
     1.200e-01      1.082e-01      4.016e-01      1.206e-01      1.159e-02      1.807e-01      1.285e-01
     1.220e-01      1.023e-01      3.904e-01      1.234e-01      1.098e-02      1.683e-01      1.192e-01
     1.240e-01      9.634e-02      3.798e-01      1.262e-01      1.036e-02      1.563e-01      1.184e-01
     1.260e-01      9.451e-02      3.697e-01      1.289e-01      1.018e-02      1.512e-01      1.122e-01
     1.280e-01      9.678e-02      3.600e-01      1.317e-01      1.045e-02      1.527e-01      1.159e-01
     1.300e-01      9.905e-02      3.508e-01      1.344e-01      1.072e-02      1.542e-01      1.131e-01
     1.320e-01      9.716e-02      3.421e-01      1.371e-01      1.054e-02      1.494e-01      1.154e-01
     1.340e-01      9.527e-02      3.339e-01      1.398e-01      1.037e-02      1.447e-01      1.100e-01
     1.360e-01      9.344e-02      3.260e-01      1.423e-01      1.020e-02      1.403e-01      1.104e-01
     1.380e-01      9.167e-02      3.186e-01      1.448e-01      1.004e-02      1.361e-01      1.059e-01
     1.400e-01      8.991e-02      3.115e-01      1.472e-01      9.894e-03      1.322e-01      1.083e-01
     1.420e-01      9.382e-02      3.048e-01      1.494e-01      1.035e-02      1.364e-01      1.073e-01
     1.440e-01      9.773e-02      2.985e-01      1.515e-01      1.082e-02      1.405e-01      1.098e-01
     1.460e-01      9.539e-02      2.925e-01      1.535e-01      1.061e-02      1.359e-01      1.046e-01
     1.480e-01      8.681e-02      2.868e-01      1.554e-01      9.711e-03      1.227e-01      1.004e-01
     1.500e-01      7.823e-02      2.814e-01      1.570e-01      8.836e-03      1.102e-01      9.403e-02
     1.520e-01      8.303e-02      2.763e-01      1.586e-01      9.383e-03      1.155e-01      9.521e-02
     1.540e-01      8.782e-02      2.715e-01      1.599e-01      9.968e-03      1.211e-01      9.594e-02
     1.560e-01      8.921e-02      2.669e-01      1.611e-01      1.018e-02      1.221e-01      9.846e-02
     1.580e-01      8.719e-02      2.626e-01      1.622e-01      1.003e-02      1.187e-01      9.682e-02
     1.600e-01      8.517e-02      2.585e-01      1.630e-01      9.876e-03      1.155e-01      9.746e-02
     1.620e-01      8.782e-02      2.546e-01      1.637e-01      1.023e-02      1.181e-01      9.748e-02
     1.640e-01      9.047e-02      2.508e-01      1.642e-01      1.061e-02      1.210e-01      1.010e-01
     1.660e-01      9.382e-02      2.473e-01      1.645e-01      1.108e-02      1.248e-01      1.036e-01
     1.680e-01      9.785e-02      2.440e-01      1.647e-01      1.163e-02      1.295e-01      1.077e-01
     1.700e-01      1.019e-01      2.408e-01      1.647e-01      1.215e-02      1.337e-01      1.086e-01
     1.720e-01      9.861e-02      2.377e-01      1.645e-01      1.189e-02      1.293e-01      1.080e-01
     1.740e-01      9.533e-02      2.348e-01      1.642e-01      1.160e-02      1.247e-01      1.055e-01
     1.760e-01      9.470e-02      2.320e-01      1.637e-01      1.162e-02      1.234e-01      1.046e-01
     1.780e-01      9.672e-02      2.294e-01      1.631e-01      1.193e-02      1.254e-01      1.051e-01
     1.800e-01      9.874e-02      2.268e-01      1.623e-01      1.228e-02      1.277e-01      1.072e-01
     1.820e-01      1.013e-01      2.244e-01      1.614e-01      1.269e-02      1.305e-01      1.098e-01
     1.840e-01      1.038e-01      2.220e-01      1.604e-01      1.312e-02      1.334e-01      1.130e-01
     1.860e-01      1.070e-01      2.196e-01      1.592e-01      1.364e-02      1.372e-01      1.167e-01
     1.880e-01      1.109e-01      2.173e-01      2.082e-01      1.425e-02      1.418e-01      1.193e-01
     1.900e-01      1.148e-01      2.151e-01      2.133e-01      1.474e-02      1.451e-01      1.196e-01
     1.920e-01      1.069e-01      2.130e-01      2.176e-01      1.396e-02      1.361e-01      1.148e-01
     1.940e-01      9.893e-02      2.110e-01      2.212e-01      1.307e-02      1.261e-01      1.088e-01
     1.960e-01      9.388e-02      2.091e-01      2.239e-01      1.252e-02      1.194e-01      1.022e-01
     1.980e-01      9.174e-02      2.072e-01      2.259e-01      1.230e-02      1.162e-01      9.884e-02
     2.000e-01      8.959e-02      2.054e-01      2.271e-01      1.209e-02      1.131e-01      9.502e-02
     2.020e-01      8.593e-02      2.037e-01      2.276e-01      1.172e-02      1.085e-01      9.246e-02
     2.040e-01      8.227e-02      2.020e-01      2.274e-01      1.136e-02      1.041e-01      8.919e-02
     2.060e-01      8.126e-02      2.003e-01      2.266e-01      1.132e-02      1.028e-01      8.881e-02
     2.080e-01      8.290e-02      1.987e-01      2.251e-01      1.160e-02      1.043e-01      8.854e-02
     2.100e-01      8.454e-02      1.971e-01      2.230e-01      1.188e-02      1.058e-01      8.990e-02
     2.120e-01      8.290e-02      1.956e-01      2.203e-01      1.180e-02      1.041e-01      8.853e-02
     2.140e-01      8.126e-02      1.942e-01      2.171e-01      1.164e-02      1.017e-01      8.698e-02
     2.160e-01      7.773e-02      1.927e-01      2.135e-01      1.122e-02      9.719e-02      8.212e-02
     2.180e-01      7.230e-02      1.913e-01      2.095e-01      1.056e-02      9.065e-02      7.819e-02
     2.200e-01      6.688e-02      1.900e-01      2.050e-01      1.001e-02      8.515e-02      7.430e-02
     2.220e-01      6.915e-02      1.887e-01      2.003e-01      1.028e-02      8.660e-02      7.472e-02
     2.240e-01      7.142e-02      1.874e-01      1.953e-01      1.064e-02      8.884e-02      7.467e-02
     2.260e-01      7.066e-02      1.862e-01      1.901e-01      1.061e-02      8.784e-02      7.460e-02
     2.280e-01      6.688e-02      1.850e-01      1.847e-01      1.020e-02      8.365e-02      7.168e-02
     2.300e-01      6.309e-02      1.839e-01      1.792e-01      9.883e-03      8.038e-02      7.120e-02
     2.320e-01      6.700e-02      1.828e-01      1.736e-01      1.039e-02      8.375e-02      7.175e-02
     2.340e-01      7.091e-02      1.818e-01      1.679e-01      1.097e-02      8.773e-02      7.455e-02
     2.360e-01      7.054e-02      1.808e-01      1.623e-01      1.100e-02      8.722e-02      7.355e-02
     2.380e-01      6.587e-02      1.799e-01      1.567e-01      1.047e-02      8.227e-02      7.136e-02
     2.400e-01      6.120e-02      1.790e-01      1.513e-01      1.003e-02      7.816e-02      6.843e-02
     2.420e-01      6.473e-02      1.782e-01      1.459e-01      1.046e-02      8.082e-02      7.020e-02
     2.440e-01      6.826e-02      1.775e-01      1.407e-01      1.097e-02      8.412e-02      7.111e-02
     2.460e-01      6.694e-02      1.768e-01      1.357e-01      1.084e-02      8.244e-02      7.002e-02
     2.480e-01      6.076e-02      1.761e-01      1.309e-01      1.006e-02      7.584e-02      6.519e-02
     2.500e-01      5.457e-02      1.755e-01      1.263e-01      9.424e-03      7.051e-02      6.277e-02
     2.520e-01      5.886e-02      1.750e-01      1.221e-01      9.898e-03      7.347e-02      6.325e-02
     2.540e-01      6.315e-02      1.745e-01      1.181e-01      1.058e-02      7.794e-02      6.634e-02
     2.560e-01      6.397e-02      1.741e-01      1.144e-01      1.080e-02      7.894e-02      6.716e-02
     2.580e-01      6.132e-02      1.737e-01      1.110e-01      1.055e-02      7.649e-02      6.634e-02
     2.600e-01      5.868e-02      1.734e-01      1.080e-01      1.029e-02      7.405e-02      6.439e-02
     2.620e-01      5.956e-02      1.732e-01      1.053e-01      1.041e-02      7.430e-02      6.426e-02
     2.640e-01      6.044e-02      1.730e-01      1.029e-01      1.061e-02      7.516e-02      6.448e-02
     2.660e-01      6.050e-02      1.729e-01      1.009e-01      1.070e-02      7.523e-02      6.496e-02
     2.680e-01      5.975e-02      1.729e-01      9.925e-02      1.067e-02      7.448e-02      6.421e-02
     2.700e-01      5.899e-02      1.729e-01      9.793e-02      1.056e-02      7.316e-02      6.292e-02
     2.720e-01      5.672e-02      1.729e-01      9.696e-02      1.028e-02      7.073e-02      6.083e-02
     2.740e-01      5.445e-02      1.730e-01      9.632e-02      1.004e-02      6.856e-02      5.963e-02
     2.760e-01      5.457e-02      1.732e-01      9.601e-02      1.014e-02      6.873e-02      5.975e-02
     2.780e-01      5.710e-02      1.734e-01      9.601e-02      1.058e-02      7.117e-02      6.138e-02
     2.800e-01      5.962e-02      1.737e-01      9.633e-02      1.094e-02      7.310e-02      6.252e-02
     2.820e-01      5.773e-02      1.740e-01      9.693e-02      1.084e-02      7.191e-02      6.220e-02
     2.840e-01      5.584e-02      1.743e-01      9.781e-02      1.054e-02      6.942e-02      6.006e-02
     2.860e-01      5.331e-02      1.747e-01      9.895e-02      1.013e-02      6.627e-02      5.709e-02
     2.880e-01      5.016e-02      1.751e-01      1.003e-01      9.635e-03      6.258e-02      5.401e-02
     2.900e-01      4.700e-02      1.756e-01      1.020e-01      9.270e-03      5.979e-02      5.200e-02
     2.920e-01      4.789e-02      1.761e-01      1.038e-01      9.332e-03      5.978e-02      5.157e-02
     2.940e-01      4.877e-02      1.766e-01      1.058e-01      9.610e-03      6.114e-02      5.260e-02
     2.960e-01      5.073e-02      1.771e-01      1.080e-01      1.006e-02      6.358e-02      5.469e-02
     2.980e-01      5.375e-02      1.776e-01      1.103e-01      1.069e-02      6.710e-02      5.788e-02
     3.000e-01      5.678e-02      1.782e-01      1.127e-01      1.153e-02      7.189e-02      6.242e-02
     3.020e-01      6.334e-02      1.788e-01      1.153e-01      1.275e-02      7.900e-02      6.828e-02
     3.040e-01      6.991e-02      1.794e-01      1.179e-01      1.405e-02      8.644e-02      7.431e-02
     3.060e-01      7.438e-02      1.800e-01      1.206e-01      1.505e-02      9.202e-02      7.914e-02
     3.080e-01      7.678e-02      1.805e-01      1.234e-01      1.576e-02      9.574e-02      8.282e-02
     3.100e-01      7.918e-02      1.811e-01      1.262e-01      1.651e-02      9.965e-02      8.669e-02
     3.120e-01      8.448e-02      1.817e-01      1.289e-01      1.756e-02      1.053e-01      9.130e-02
     3.140e-01      8.978e-02      1.822e-01      1.317e-01      1.854e-02      1.105e-01      9.500e-02
     3.160e-01      9.098e-02      1.828e-01      1.344e-01      1.891e-02      1.119e-01      9.622e-02
     3.180e-01      8.808e-02      1.833e-01      1.371e-01      1.868e-02      1.099e-01      9.523e-02
     3.200e-01      8.517e-02      1.838e-01      1.398e-01      1.855e-02      1.085e-01      9.453e-02
     3.220e-01      8.896e-02      1.842e-01      1.423e-01      1.911e-02      1.110e-01      9.586e-02
     3.240e-01      9.274e-02      1.847e-01      1.448e-01      1.989e-02      1.148e-01      9.873e-02
     3.260e-01      9.445e-02      1.851e-01      1.472e-01      2.038e-02      1.169e-01      1.008e-01
     3.280e-01      9.407e-02      1.854e-01      1.494e-01      2.057e-02      1.173e-01      1.016e-01
     3.300e-01      9.369e-02      1.857e-01      1.515e-01      2.083e-02      1.180e-01      1.024e-01
     3.320e-01      9.685e-02      1.860e-01      1.535e-01      2.144e-02      1.208e-01      1.045e-01
     3.340e-01      1.000e-01      1.862e-01      1.554e-01      2.215e-02      1.241e-01      1.069e-01
     3.360e-01      1.016e-01      1.864e-01      1.570e-01      2.265e-02      1.261e-01      1.086e-01
     3.380e-01      1.018e-01      1.865e-01      1.586e-01      2.295e-02      1.270e-01      1.098e-01
     3.400e-01      1.019e-01      1.866e-01      1.599e-01      2.344e-02      1.290e-01      1.121e-01
     3.420e-01      1.073e-01      1.866e-01      1.611e-01      2.446e-02      1.338e-01      1.158e-01
     3.440e-01      1.127e-01      1.866e-01      1.622e-01      2.541e-02      1.382e-01      1.194e-01
     3.460e-01      1.125e-01      1.865e-01      1.630e-01      2.550e-02      1.378e-01      1.196e-01
     3.480e-01      1.066e-01      1.863e-01      1.637e-01      2.467e-02      1.326e-01      1.155e-01
     3.500e-01      1.006e-01      1.861e-01      1.642e-01      2.348e-02      1.255e-01      1.088e-01
     3.520e-01      9.483e-02      1.858e-01      1.645e-01      2.227e-02      1.183e-01      1.021e-01
     3.540e-01      8.902e-02      1.855e-01      1.647e-01      2.123e-02      1.122e-01      9.658e-02
     3.560e-01      8.593e-02      1.851e-01      1.647e-01      2.061e-02      1.083e-01      9.334e-02
     3.580e-01      8.555e-02      1.847e-01      1.645e-01      2.044e-02      1.068e-01      9.195e-02
     3.600e-01      8.517e-02      1.842e-01      1.642e-01      2.045e-02      1.062e-01      9.165e-02
     3.620e-01      8.492e-02      1.836e-01      1.637e-01      2.048e-02      1.059e-01      9.152e-02
     3.640e-01      8.467e-02      1.830e-01      1.631e-01      2.051e-02      1.054e-01      9.126e-02
     3.660e-01      8.410e-02      1.823e-01      1.623e-01      2.048e-02      1.047e-01      9.073e-02
     3.680e-01      8.322e-02      1.816e-01      1.614e-01      2.038e-02      1.036e-01      8.982e-02
     3.700e-01      8.233e-02      1.808e-01      1.604e-01      2.014e-02      1.018e-01      8.808e-02
     3.720e-01      7.943e-02      1.800e-01      1.592e-01      1.969e-02      9.900e-02      8.551e-02
     3.740e-01      7.653e-02      1.791e-01      1.579e-01      1.922e-02      9.615e-02      8.303e-02
     3.760e-01      7.521e-02      1.782e-01      1.565e-01      1.900e-02      9.450e-02      8.172e-02
