Energy,keV Raw_signal Basic_conv,sigma=50 Wiener_deconv Broaden_gauss_simple_conv,dE/E=0.001 simple_deconv numeric_deconv
     0.000e+00      9.989e+00      2.012e+00      4.417e-01      0.000e+00      0.000e+00      2.522e+01
     2.000e-03      7.784e+00      2.033e+00      4.511e-01      7.784e+00      1.538e+03      2.522e+01
     4.000e-03      5.578e+00      2.051e+00      4.589e-01      5.578e+00      5.512e+02      1.229e+01
     6.000e-03      4.060e+00      2.066e+00      4.653e-01      4.060e+00      2.675e+02      9.430e+00
     8.000e-03      3.230e+00      2.079e+00      4.701e-01      3.230e+00      1.596e+02      7.594e+00
     1.000e-02      2.401e+00      2.089e+00      4.736e-01      2.401e+00      9.490e+01      5.933e+00
     1.200e-02      2.125e+00      2.097e+00      4.755e-01      2.125e+00      7.001e+01      5.077e+00
     1.400e-02      1.850e+00      2.102e+00      4.761e-01      1.850e+00      5.224e+01      4.488e+00
     1.600e-02      1.634e+00      2.104e+00      4.753e-01      1.634e+00      4.037e+01      3.987e+00
     1.800e-02      1.478e+00      2.103e+00      4.733e-01      1.478e+00      3.245e+01      3.592e+00
     2.000e-02      1.321e+00      2.100e+00      4.700e-01      1.321e+00      2.611e+01      3.239e+00
     2.200e-02      1.205e+00      2.094e+00      4.655e-01      1.205e+00      2.164e+01      2.942e+00
     2.400e-02      1.088e+00      2.086e+00      4.599e-01      1.088e+00      1.792e+01      2.673e+00
     2.600e-02      1.001e+00      2.075e+00      4.534e-01      1.001e+00      1.521e+01      2.463e+00
     2.800e-02      9.426e-01      2.062e+00      4.459e-01      9.426e-01      1.331e+01      2.312e+00
     3.000e-02      8.846e-01      2.046e+00      4.375e-01      8.846e-01      1.166e+01      2.178e+00
     3.200e-02      8.354e-01      2.028e+00      4.285e-01      8.354e-01      1.032e+01      2.056e+00
     3.400e-02      7.862e-01      2.009e+00      4.187e-01      7.862e-01      9.140e+00      1.936e+00
     3.600e-02      7.357e-01      1.987e+00      4.084e-01      7.357e-01      8.078e+00      1.813e+00
     3.800e-02      6.839e-01      1.963e+00      3.976e-01      6.839e-01      7.114e+00      1.686e+00
     4.000e-02      6.320e-01      1.937e+00      3.865e-01      6.320e-01      6.246e+00      1.568e+00
     4.200e-02      6.021e-01      1.910e+00      3.750e-01      6.021e-01      5.667e+00      1.485e+00
     4.400e-02      5.722e-01      1.881e+00      3.634e-01      5.722e-01      5.141e+00      1.414e+00
     4.600e-02      5.440e-01      1.851e+00      3.516e-01      5.440e-01      4.675e+00      1.345e+00
     4.800e-02      5.175e-01      1.819e+00      3.397e-01      5.175e-01      4.261e+00      1.279e+00
     5.000e-02      4.909e-01      1.787e+00      3.280e-01      4.909e-01      3.881e+00      1.217e+00
     5.200e-02      4.711e-01      1.753e+00      3.163e-01      4.711e-01      3.581e+00      1.165e+00
     5.400e-02      4.513e-01      1.718e+00      3.048e-01      4.513e-01      3.304e+00      1.118e+00
     5.600e-02      4.347e-01      1.683e+00      2.935e-01      4.347e-01      3.068e+00      1.077e+00
     5.800e-02      4.212e-01      1.647e+00      2.825e-01      4.212e-01      2.871e+00      1.043e+00
     6.000e-02      4.078e-01      1.611e+00      2.719e-01      4.078e-01      2.686e+00      1.011e+00
     6.200e-02      3.965e-01      1.574e+00      2.617e-01      3.965e-01      2.528e+00      9.820e-01
     6.400e-02      3.851e-01      1.537e+00      2.520e-01      3.851e-01      2.379e+00      9.548e-01
     6.600e-02      3.752e-01      1.499e+00      2.428e-01      3.752e-01      2.247e+00      9.307e-01
     6.800e-02      3.667e-01      1.462e+00      2.341e-01      3.667e-01      2.132e+00      9.101e-01
     7.000e-02      3.582e-01      1.425e+00      2.259e-01      3.582e-01      2.023e+00      8.839e-01
     7.200e-02      3.370e-01      1.388e+00      2.183e-01      3.370e-01      1.850e+00      8.363e-01
     7.400e-02      3.158e-01      1.351e+00      2.114e-01      3.158e-01      1.687e+00      7.863e-01
     7.600e-02      3.040e-01      1.315e+00      2.050e-01      3.040e-01      1.581e+00      7.569e-01
     7.800e-02      3.017e-01      1.279e+00      1.993e-01      3.017e-01      1.529e+00      7.480e-01
     8.000e-02      2.994e-01      1.244e+00      1.942e-01      2.994e-01      1.479e+00      7.418e-01
     8.200e-02      2.938e-01      1.209e+00      1.897e-01      2.938e-01      1.416e+00      7.298e-01
     8.400e-02      2.881e-01      1.175e+00      1.858e-01      2.881e-01      1.356e+00      7.143e-01
     8.600e-02      2.785e-01      1.142e+00      1.826e-01      2.785e-01      1.280e+00      6.904e-01
     8.800e-02      2.651e-01      1.110e+00      1.799e-01      2.651e-01      1.191e+00      6.575e-01
     9.000e-02      2.517e-01      1.078e+00      1.778e-01      2.517e-01      1.105e+00      6.312e-01
     9.200e-02      2.557e-01      1.047e+00      1.763e-01      2.557e-01      1.099e+00      6.339e-01
     9.400e-02      2.598e-01      1.017e+00      1.754e-01      2.598e-01      1.092e+00      6.438e-01
     9.600e-02      2.601e-01      9.885e-01      1.749e-01      2.601e-01      1.071e+00      6.449e-01
     9.800e-02      2.565e-01      9.605e-01      1.749e-01      2.565e-01      1.035e+00      6.375e-01
     1.000e-01      2.530e-01      9.335e-01      1.754e-01      2.530e-01      1.000e+00      6.289e-01
     1.020e-01      2.503e-01      9.075e-01      1.763e-01      2.503e-01      9.701e-01      6.224e-01
     1.040e-01      2.477e-01      8.824e-01      1.776e-01      2.477e-01      9.414e-01      6.141e-01
     1.060e-01      2.398e-01      8.584e-01      1.792e-01      2.398e-01      8.942e-01      5.946e-01
     1.080e-01      2.267e-01      8.353e-01      1.812e-01      2.267e-01      8.298e-01      5.634e-01
     1.100e-01      2.136e-01      8.133e-01      1.835e-01      2.136e-01      7.676e-01      5.350e-01
     1.120e-01      2.111e-01      7.922e-01      1.860e-01      2.111e-01      7.452e-01      5.240e-01
     1.140e-01      2.087e-01      7.720e-01      1.887e-01      2.087e-01      7.235e-01      5.186e-01
     1.160e-01      2.064e-01      7.528e-01      1.915e-01      2.064e-01      7.032e-01      5.132e-01
     1.180e-01      2.042e-01      7.345e-01      1.945e-01      2.042e-01      6.842e-01      5.082e-01
     1.200e-01      2.021e-01      7.171e-01      1.977e-01      2.021e-01      6.658e-01      5.005e-01
     1.220e-01      1.940e-01      7.006e-01      2.008e-01      1.940e-01      6.285e-01      4.828e-01
     1.240e-01      1.858e-01      6.849e-01      2.040e-01      1.858e-01      5.924e-01      4.631e-01
     1.260e-01      1.799e-01      6.700e-01      2.072e-01      1.799e-01      5.644e-01      4.479e-01
     1.280e-01      1.762e-01      6.560e-01      2.104e-01      1.762e-01      5.441e-01      4.369e-01
     1.300e-01      1.725e-01      6.426e-01      2.135e-01      1.725e-01      5.245e-01      4.340e-01
     1.320e-01      1.833e-01      6.300e-01      2.165e-01      1.833e-01      5.488e-01      4.549e-01
     1.340e-01      1.941e-01      6.181e-01      2.194e-01      1.941e-01      5.725e-01      4.801e-01
     1.360e-01      1.977e-01      6.069e-01      2.222e-01      1.977e-01      5.746e-01      4.897e-01
     1.380e-01      1.942e-01      5.963e-01      2.247e-01      1.942e-01      5.561e-01      4.837e-01
     1.400e-01      1.906e-01      5.863e-01      2.271e-01      1.906e-01      5.382e-01      4.744e-01
     1.420e-01      1.873e-01      5.768e-01      2.293e-01      1.873e-01      5.213e-01      4.657e-01
     1.440e-01      1.839e-01      5.679e-01      2.313e-01      1.839e-01      5.048e-01      4.581e-01
     1.460e-01      1.828e-01      5.595e-01      2.330e-01      1.828e-01      4.948e-01      4.554e-01
     1.480e-01      1.838e-01      5.515e-01      2.345e-01      1.838e-01      4.909e-01      4.577e-01
     1.500e-01      1.849e-01      5.440e-01      2.357e-01      1.849e-01      4.872e-01      4.568e-01
     1.520e-01      1.769e-01      5.369e-01      2.366e-01      1.769e-01      4.601e-01      4.410e-01
     1.540e-01      1.690e-01      5.301e-01      2.373e-01      1.690e-01      4.337e-01      4.215e-01
     1.560e-01      1.635e-01      5.237e-01      2.377e-01      1.635e-01      4.142e-01      4.074e-01
     1.580e-01      1.605e-01      5.176e-01      2.378e-01      1.605e-01      4.014e-01      3.979e-01
     1.600e-01      1.575e-01      5.118e-01      2.376e-01      1.575e-01      3.890e-01      3.974e-01
     1.620e-01      1.709e-01      5.063e-01      2.372e-01      1.709e-01      4.170e-01      4.230e-01
     1.640e-01      1.843e-01      5.010e-01      2.365e-01      1.843e-01      4.443e-01      4.587e-01
     1.660e-01      2.014e-01      4.959e-01      2.354e-01      2.014e-01      4.796e-01      5.015e-01
     1.680e-01      2.221e-01      4.910e-01      2.342e-01      2.221e-01      5.226e-01      5.524e-01
     1.700e-01      2.428e-01      4.863e-01      2.326e-01      2.428e-01      5.646e-01      5.985e-01
     1.720e-01      2.495e-01      4.818e-01      2.308e-01      2.495e-01      5.735e-01      6.216e-01
     1.740e-01      2.563e-01      4.773e-01      2.288e-01      2.563e-01      5.821e-01      6.380e-01
     1.760e-01      2.644e-01      4.730e-01      2.266e-01      2.644e-01      5.938e-01      6.581e-01
     1.780e-01      2.739e-01      4.688e-01      2.241e-01      2.739e-01      6.084e-01      6.821e-01
     1.800e-01      2.835e-01      4.647e-01      2.214e-01      2.835e-01      6.226e-01      7.012e-01
     1.820e-01      2.810e-01      4.607e-01      2.186e-01      2.810e-01      6.104e-01      7.009e-01
     1.840e-01      2.785e-01      4.567e-01      2.155e-01      2.785e-01      5.984e-01      6.928e-01
     1.860e-01      2.724e-01      4.524e-01      2.123e-01      2.724e-01      5.790e-01      6.776e-01
     1.880e-01      2.627e-01      4.483e-01      4.511e-01      2.627e-01      5.524e-01      6.549e-01
     1.900e-01      2.530e-01      4.444e-01      4.589e-01      2.530e-01      5.263e-01      6.304e-01
     1.920e-01      2.431e-01      4.405e-01      4.653e-01      2.431e-01      5.004e-01      6.059e-01
     1.940e-01      2.332e-01      4.367e-01      4.701e-01      2.332e-01      4.751e-01      5.806e-01
     1.960e-01      2.214e-01      4.329e-01      4.736e-01      2.214e-01      4.465e-01      5.514e-01
     1.980e-01      2.078e-01      4.292e-01      4.755e-01      2.078e-01      4.148e-01      5.182e-01
     2.000e-01      1.942e-01      4.255e-01      4.761e-01      1.942e-01      3.837e-01      4.847e-01
     2.020e-01      1.821e-01      4.218e-01      4.753e-01      1.821e-01      3.564e-01      4.534e-01
     2.040e-01      1.701e-01      4.180e-01      4.733e-01      1.701e-01      3.296e-01      4.262e-01
     2.060e-01      1.658e-01      4.143e-01      4.700e-01      1.658e-01      3.181e-01      4.151e-01
     2.080e-01      1.691e-01      4.106e-01      4.655e-01      1.691e-01      3.214e-01      4.207e-01
     2.100e-01      1.725e-01      4.069e-01      4.599e-01      1.725e-01      3.247e-01      4.271e-01
     2.120e-01      1.695e-01      4.032e-01      4.534e-01      1.695e-01      3.160e-01      4.228e-01
     2.140e-01      1.665e-01      3.996e-01      4.459e-01      1.665e-01      3.075e-01      4.148e-01
     2.160e-01      1.629e-01      3.959e-01      4.375e-01      1.629e-01      2.982e-01      4.059e-01
     2.180e-01      1.589e-01      3.922e-01      4.285e-01      1.589e-01      2.881e-01      3.958e-01
     2.200e-01      1.548e-01      3.886e-01      4.187e-01      1.548e-01      2.781e-01      3.871e-01
     2.220e-01      1.543e-01      3.850e-01      4.084e-01      1.543e-01      2.747e-01      3.843e-01
     2.240e-01      1.537e-01      3.814e-01      3.976e-01      1.537e-01      2.713e-01      3.824e-01
     2.260e-01      1.507e-01      3.778e-01      3.865e-01      1.507e-01      2.636e-01      3.752e-01
     2.280e-01      1.452e-01      3.743e-01      3.750e-01      1.452e-01      2.518e-01      3.626e-01
     2.300e-01      1.398e-01      3.708e-01      3.634e-01      1.398e-01      2.402e-01      3.484e-01
     2.320e-01      1.336e-01      3.674e-01      3.516e-01      1.336e-01      2.276e-01      3.330e-01
     2.340e-01      1.274e-01      3.640e-01      3.397e-01      1.274e-01      2.152e-01      3.191e-01
     2.360e-01      1.255e-01      3.607e-01      3.280e-01      1.255e-01      2.102e-01      3.143e-01
     2.380e-01      1.280e-01      3.575e-01      3.163e-01      1.280e-01      2.126e-01      3.192e-01
     2.400e-01      1.305e-01      3.543e-01      3.048e-01      1.305e-01      2.149e-01      3.227e-01
     2.420e-01      1.255e-01      3.511e-01      2.935e-01      1.255e-01      2.050e-01      3.135e-01
     2.440e-01      1.206e-01      3.481e-01      2.825e-01      1.206e-01      1.953e-01      3.028e-01
     2.460e-01      1.215e-01      3.451e-01      2.719e-01      1.215e-01      1.953e-01      3.049e-01
     2.480e-01      1.284e-01      3.422e-01      2.617e-01      1.284e-01      2.047e-01      3.206e-01
     2.500e-01      1.353e-01      3.394e-01      2.520e-01      1.353e-01      2.140e-01      3.326e-01
     2.520e-01      1.279e-01      3.367e-01      2.428e-01      1.279e-01      2.006e-01      3.210e-01
     2.540e-01      1.205e-01      3.341e-01      2.341e-01      1.205e-01      1.875e-01      3.023e-01
     2.560e-01      1.151e-01      3.316e-01      2.259e-01      1.151e-01      1.777e-01      2.885e-01
     2.580e-01      1.117e-01      3.291e-01      2.183e-01      1.117e-01      1.712e-01      2.791e-01
     2.600e-01      1.084e-01      3.268e-01      2.114e-01      1.084e-01      1.647e-01      2.725e-01
     2.620e-01      1.087e-01      3.245e-01      2.050e-01      1.087e-01      1.640e-01      2.719e-01
     2.640e-01      1.091e-01      3.224e-01      1.993e-01      1.091e-01      1.633e-01      2.725e-01
     2.660e-01      1.075e-01      3.203e-01      1.942e-01      1.075e-01      1.597e-01      2.688e-01
     2.680e-01      1.039e-01      3.183e-01      1.897e-01      1.039e-01      1.533e-01      2.607e-01
     2.700e-01      1.004e-01      3.164e-01      1.858e-01      1.004e-01      1.470e-01      2.534e-01
     2.720e-01      1.009e-01      3.146e-01      1.826e-01      1.009e-01      1.467e-01      2.530e-01
     2.740e-01      1.015e-01      3.129e-01      1.799e-01      1.015e-01      1.464e-01      2.544e-01
     2.760e-01      1.009e-01      3.113e-01      1.778e-01      1.009e-01      1.445e-01      2.534e-01
     2.780e-01      9.934e-02      3.098e-01      1.763e-01      9.934e-02      1.412e-01      2.497e-01
     2.800e-01      9.774e-02      3.083e-01      1.754e-01      9.774e-02      1.380e-01      2.476e-01
     2.820e-01      1.004e-01      3.069e-01      1.749e-01      1.004e-01      1.407e-01      2.525e-01
     2.840e-01      1.031e-01      3.056e-01      1.749e-01      1.031e-01      1.434e-01      2.590e-01
     2.860e-01      1.038e-01      3.043e-01      1.754e-01      1.038e-01      1.435e-01      2.615e-01
     2.880e-01      1.028e-01      3.031e-01      1.763e-01      1.028e-01      1.411e-01      2.598e-01
     2.900e-01      1.017e-01      3.019e-01      1.776e-01      1.017e-01      1.387e-01      2.576e-01
     2.920e-01      1.015e-01      3.008e-01      1.792e-01      1.015e-01      1.375e-01      2.569e-01
     2.940e-01      1.014e-01      2.998e-01      1.812e-01      1.014e-01      1.363e-01      2.571e-01
     2.960e-01      1.021e-01      2.987e-01      1.835e-01      1.021e-01      1.363e-01      2.589e-01
     2.980e-01      1.037e-01      2.977e-01      1.860e-01      1.037e-01      1.375e-01      2.621e-01
     3.000e-01      1.053e-01      2.967e-01      1.887e-01      1.053e-01      1.387e-01      2.719e-01
     3.020e-01      1.198e-01      2.958e-01      1.915e-01      1.198e-01      1.568e-01      3.033e-01
     3.040e-01      1.343e-01      2.948e-01      1.945e-01      1.343e-01      1.746e-01      3.394e-01
     3.060e-01      1.427e-01      2.938e-01      1.977e-01      1.427e-01      1.843e-01      3.620e-01
     3.080e-01      1.450e-01      2.929e-01      2.008e-01      1.450e-01      1.861e-01      3.710e-01
     3.100e-01      1.473e-01      2.919e-01      2.040e-01      1.473e-01      1.878e-01      3.776e-01
     3.120e-01      1.510e-01      2.909e-01      2.072e-01      1.510e-01      1.913e-01      3.872e-01
     3.140e-01      1.547e-01      2.899e-01      2.104e-01      1.547e-01      1.948e-01      3.959e-01
     3.160e-01      1.538e-01      2.889e-01      2.135e-01      1.538e-01      1.924e-01      3.945e-01
     3.180e-01      1.483e-01      2.879e-01      2.165e-01      1.483e-01      1.844e-01      3.826e-01
     3.200e-01      1.429e-01      2.868e-01      2.194e-01      1.429e-01      1.765e-01      3.719e-01
     3.220e-01      1.450e-01      2.856e-01      2.222e-01      1.450e-01      1.780e-01      3.740e-01
     3.240e-01      1.471e-01      2.845e-01      2.247e-01      1.471e-01      1.795e-01      3.814e-01
     3.260e-01      1.514e-01      2.832e-01      2.271e-01      1.514e-01      1.836e-01      3.935e-01
     3.280e-01      1.580e-01      2.819e-01      2.293e-01      1.580e-01      1.904e-01      4.110e-01
     3.300e-01      1.645e-01      2.806e-01      2.313e-01      1.645e-01      1.971e-01      4.243e-01
     3.320e-01      1.599e-01      2.792e-01      2.330e-01      1.599e-01      1.904e-01      4.188e-01
     3.340e-01      1.553e-01      2.778e-01      2.345e-01      1.553e-01      1.838e-01      4.071e-01
     3.360e-01      1.513e-01      2.763e-01      2.357e-01      1.513e-01      1.779e-01      3.970e-01
     3.380e-01      1.477e-01      2.747e-01      2.366e-01      1.477e-01      1.728e-01      3.880e-01
     3.400e-01      1.442e-01      2.730e-01      2.373e-01      1.442e-01      1.676e-01      3.814e-01
     3.420e-01      1.447e-01      2.713e-01      2.377e-01      1.447e-01      1.673e-01      3.816e-01
     3.440e-01      1.452e-01      2.695e-01      2.378e-01      1.452e-01      1.669e-01      3.837e-01
     3.460e-01      1.448e-01      2.677e-01      2.376e-01      1.448e-01      1.654e-01      3.837e-01
     3.480e-01      1.434e-01      2.658e-01      2.372e-01      1.434e-01      1.629e-01      3.817e-01
     3.500e-01      1.420e-01      2.638e-01      2.365e-01      1.420e-01      1.603e-01      3.758e-01
     3.520e-01      1.340e-01      2.618e-01      2.354e-01      1.340e-01      1.505e-01      3.586e-01
     3.540e-01      1.261e-01      2.597e-01      2.342e-01      1.261e-01      1.407e-01      3.386e-01
     3.560e-01      1.206e-01      2.575e-01      2.326e-01      1.206e-01      1.339e-01      3.244e-01
     3.580e-01      1.176e-01      2.553e-01      2.308e-01      1.176e-01      1.298e-01      3.160e-01
     3.600e-01      1.146e-01      2.530e-01      2.288e-01      1.146e-01      1.258e-01      3.087e-01
     3.620e-01      1.112e-01      2.506e-01      2.266e-01      1.112e-01      1.214e-01      3.006e-01
     3.640e-01      1.078e-01      2.482e-01      2.241e-01      1.078e-01      1.171e-01      2.924e-01
     3.660e-01      1.052e-01      2.458e-01      2.214e-01      1.052e-01      1.136e-01      2.859e-01
     3.680e-01      1.032e-01      2.433e-01      2.186e-01      1.032e-01      1.109e-01      2.810e-01
     3.700e-01      1.013e-01      2.408e-01      2.155e-01      1.013e-01      1.082e-01      2.765e-01
     3.720e-01      9.951e-02      2.382e-01      2.123e-01      9.951e-02      1.057e-01      2.723e-01
     3.740e-01      9.774e-02      2.356e-01      2.090e-01      9.774e-02      1.033e-01      2.680e-01
     3.760e-01      9.571e-02      2.330e-01      2.055e-01      9.571e-02      1.006e-01      2.631e-01
