Energy,keV Raw_signal Basic_conv,sigma=50 Wiener_deconv Broaden_gauss_simple_conv,dE/E=0.01 simple_deconv numeric_deconv
     0.000e+00      1.505e+01      2.654e+00      6.847e-01      0.000e+00      0.000e+00      2.987e+01
     2.000e-03      1.096e+01      2.679e+00      6.964e-01      1.117e+00      1.044e+03      2.987e+01
     4.000e-03      7.883e+00      2.702e+00      7.060e-01      8.035e-01      3.755e+02      1.434e+01
     6.000e-03      5.665e+00      2.721e+00      7.136e-01      5.774e-01      1.799e+02      1.046e+01
     8.000e-03      4.154e+00      2.736e+00      7.190e-01      4.234e-01      9.893e+01      7.735e+00
     1.000e-02      2.816e+00      2.748e+00      7.224e-01      2.871e-01      5.366e+01      5.507e+00
     1.200e-02      2.410e+00      2.756e+00      7.237e-01      2.456e-01      3.826e+01      4.477e+00
     1.400e-02      2.131e+00      2.761e+00      7.231e-01      2.173e-01      2.901e+01      3.955e+00
     1.600e-02      1.899e+00      2.763e+00      7.206e-01      1.936e-01      2.262e+01      3.544e+00
     1.800e-02      1.751e+00      2.760e+00      7.163e-01      1.784e-01      1.853e+01      3.227e+00
     2.000e-02      1.585e+00      2.755e+00      7.102e-01      1.616e-01      1.510e+01      2.936e+00
     2.200e-02      1.459e+00      2.746e+00      7.025e-01      1.488e-01      1.264e+01      2.692e+00
     2.400e-02      1.355e+00      2.734e+00      6.933e-01      1.382e-01      1.076e+01      2.493e+00
     2.600e-02      1.263e+00      2.719e+00      6.826e-01      1.288e-01      9.257e+00      2.320e+00
     2.800e-02      1.180e+00      2.700e+00      6.707e-01      1.203e-01      8.029e+00      2.163e+00
     3.000e-02      1.095e+00      2.679e+00      6.576e-01      1.116e-01      6.952e+00      2.013e+00
     3.200e-02      1.019e+00      2.655e+00      6.434e-01      1.038e-01      6.066e+00      1.882e+00
     3.400e-02      9.521e-01      2.628e+00      6.283e-01      9.705e-02      5.335e+00      1.771e+00
     3.600e-02      8.934e-01      2.598e+00      6.124e-01      9.106e-02      4.728e+00      1.680e+00
     3.800e-02      8.419e-01      2.567e+00      5.959e-01      8.582e-02      4.221e+00      1.606e+00
     4.000e-02      7.969e-01      2.532e+00      5.788e-01      8.122e-02      3.796e+00      1.546e+00
     4.200e-02      7.588e-01      2.496e+00      5.613e-01      7.735e-02      3.442e+00      1.499e+00
     4.400e-02      7.246e-01      2.458e+00      5.435e-01      7.385e-02      3.137e+00      1.458e+00
     4.600e-02      6.926e-01      2.418e+00      5.255e-01      7.060e-02      2.869e+00      1.420e+00
     4.800e-02      6.639e-01      2.377e+00      5.074e-01      6.767e-02      2.635e+00      1.384e+00
     5.000e-02      6.380e-01      2.334e+00      4.894e-01      6.503e-02      2.431e+00      1.349e+00
     5.200e-02      6.143e-01      2.290e+00      4.715e-01      6.262e-02      2.251e+00      1.313e+00
     5.400e-02      5.914e-01      2.245e+00      4.539e-01      6.028e-02      2.087e+00      1.273e+00
     5.600e-02      5.693e-01      2.199e+00      4.366e-01      5.803e-02      1.937e+00      1.230e+00
     5.800e-02      5.495e-01      2.152e+00      4.197e-01      5.601e-02      1.805e+00      1.187e+00
     6.000e-02      5.324e-01      2.105e+00      4.033e-01      5.427e-02      1.691e+00      1.145e+00
     6.200e-02      5.160e-01      2.057e+00      3.874e-01      5.259e-02      1.586e+00      1.103e+00
     6.400e-02      5.003e-01      2.009e+00      3.722e-01      5.099e-02      1.489e+00      1.063e+00
     6.600e-02      4.863e-01      1.962e+00      3.577e-01      4.956e-02      1.404e+00      1.025e+00
     6.800e-02      4.747e-01      1.914e+00      3.438e-01      4.838e-02      1.330e+00      9.902e-01
     7.000e-02      4.647e-01      1.866e+00      3.308e-01      4.737e-02      1.265e+00      9.578e-01
     7.200e-02      4.565e-01      1.819e+00      3.186e-01      4.653e-02      1.208e+00      9.276e-01
     7.400e-02      4.482e-01      1.772e+00      3.072e-01      4.569e-02      1.154e+00      8.968e-01
     7.600e-02      4.373e-01      1.726e+00      2.966e-01      4.458e-02      1.096e+00      8.612e-01
     7.800e-02      4.231e-01      1.681e+00      2.869e-01      4.313e-02      1.034e+00      8.199e-01
     8.000e-02      4.073e-01      1.636e+00      2.781e-01      4.152e-02      9.700e-01      7.769e-01
     8.200e-02      3.941e-01      1.592e+00      2.701e-01      4.017e-02      9.156e-01      7.387e-01
     8.400e-02      3.842e-01      1.549e+00      2.630e-01      3.916e-02      8.714e-01      7.076e-01
     8.600e-02      3.779e-01      1.508e+00      2.568e-01      3.852e-02      8.372e-01      6.836e-01
     8.800e-02      3.744e-01      1.467e+00      2.514e-01      3.816e-02      8.107e-01      6.651e-01
     9.000e-02      3.721e-01      1.428e+00      2.468e-01      3.793e-02      7.879e-01      6.484e-01
     9.200e-02      3.661e-01      1.389e+00      2.430e-01      3.732e-02      7.583e-01      6.268e-01
     9.400e-02      3.560e-01      1.352e+00      2.399e-01      3.629e-02      7.217e-01      5.992e-01
     9.600e-02      3.441e-01      1.316e+00      2.376e-01      3.508e-02      6.831e-01      5.696e-01
     9.800e-02      3.337e-01      1.282e+00      2.359e-01      3.403e-02      6.491e-01      5.431e-01
     1.000e-01      3.265e-01      1.249e+00      2.349e-01      3.331e-02      6.226e-01      5.220e-01
     1.020e-01      3.213e-01      1.217e+00      2.346e-01      3.278e-02      6.008e-01      5.050e-01
     1.040e-01      3.185e-01      1.186e+00      2.347e-01      3.250e-02      5.842e-01      4.920e-01
     1.060e-01      3.177e-01      1.157e+00      2.354e-01      3.243e-02      5.719e-01      4.822e-01
     1.080e-01      3.167e-01      1.129e+00      2.365e-01      3.235e-02      5.599e-01      4.725e-01
     1.100e-01      3.125e-01      1.102e+00      2.381e-01      3.194e-02      5.428e-01      4.586e-01
     1.120e-01      3.043e-01      1.077e+00      2.400e-01      3.112e-02      5.194e-01      4.398e-01
     1.140e-01      2.954e-01      1.053e+00      2.423e-01      3.024e-02      4.958e-01      4.205e-01
     1.160e-01      2.890e-01      1.030e+00      2.448e-01      2.961e-02      4.771e-01      4.050e-01
     1.180e-01      2.858e-01      1.008e+00      2.475e-01      2.932e-02      4.644e-01      3.943e-01
     1.200e-01      2.844e-01      9.876e-01      2.504e-01      2.922e-02      4.551e-01      3.863e-01
     1.220e-01      2.826e-01      9.682e-01      2.534e-01      2.907e-02      4.454e-01      3.783e-01
     1.240e-01      2.823e-01      9.499e-01      2.565e-01      2.909e-02      4.385e-01      3.722e-01
     1.260e-01      2.853e-01      9.326e-01      2.596e-01      2.946e-02      4.370e-01      3.706e-01
     1.280e-01      2.898e-01      9.163e-01      2.627e-01      2.998e-02      4.378e-01      3.706e-01
     1.300e-01      2.907e-01      9.010e-01      2.657e-01      3.015e-02      4.335e-01      3.668e-01
     1.320e-01      2.882e-01      8.866e-01      2.687e-01      2.997e-02      4.244e-01      3.590e-01
     1.340e-01      2.842e-01      8.730e-01      2.716e-01      2.964e-02      4.134e-01      3.495e-01
     1.360e-01      2.779e-01      8.603e-01      2.742e-01      2.907e-02      3.996e-01      3.376e-01
     1.380e-01      2.682e-01      8.483e-01      2.767e-01      2.815e-02      3.813e-01      3.219e-01
     1.400e-01      2.557e-01      8.371e-01      2.790e-01      2.695e-02      3.598e-01      3.042e-01
     1.420e-01      2.468e-01      8.265e-01      2.811e-01      2.612e-02      3.439e-01      2.908e-01
     1.440e-01      2.441e-01      8.166e-01      2.828e-01      2.594e-02      3.367e-01      2.846e-01
     1.460e-01      2.464e-01      8.073e-01      2.843e-01      2.630e-02      3.367e-01      2.842e-01
     1.480e-01      2.502e-01      7.985e-01      2.855e-01      2.682e-02      3.388e-01      2.859e-01
     1.500e-01      2.530e-01      7.902e-01      2.864e-01      2.725e-02      3.396e-01      2.863e-01
     1.520e-01      2.527e-01      7.823e-01      2.869e-01      2.737e-02      3.366e-01      2.840e-01
     1.540e-01      2.514e-01      7.749e-01      2.871e-01      2.738e-02      3.324e-01      2.804e-01
     1.560e-01      2.509e-01      7.678e-01      2.870e-01      2.750e-02      3.295e-01      2.781e-01
     1.580e-01      2.545e-01      7.611e-01      2.865e-01      2.808e-02      3.322e-01      2.805e-01
     1.600e-01      2.660e-01      7.546e-01      2.857e-01      2.954e-02      3.451e-01      2.915e-01
     1.620e-01      2.876e-01      7.484e-01      2.845e-01      3.213e-02      3.708e-01      3.129e-01
     1.640e-01      3.163e-01      7.425e-01      2.830e-01      3.556e-02      4.053e-01      3.419e-01
     1.660e-01      3.493e-01      7.367e-01      2.811e-01      3.951e-02      4.449e-01      3.751e-01
     1.680e-01      3.822e-01      7.311e-01      2.790e-01      4.350e-02      4.840e-01      4.080e-01
     1.700e-01      4.087e-01      7.256e-01      2.765e-01      4.684e-02      5.151e-01      4.343e-01
     1.720e-01      4.275e-01      7.202e-01      2.737e-01      4.935e-02      5.363e-01      4.523e-01
     1.740e-01      4.379e-01      7.149e-01      2.706e-01      5.095e-02      5.473e-01      4.617e-01
     1.760e-01      4.428e-01      7.096e-01      2.672e-01      5.194e-02      5.516e-01      4.654e-01
     1.780e-01      4.456e-01      7.044e-01      2.636e-01      5.269e-02      5.533e-01      4.669e-01
     1.800e-01      4.481e-01      6.992e-01      2.597e-01      5.340e-02      5.546e-01      4.679e-01
     1.820e-01      4.489e-01      6.940e-01      2.556e-01      5.392e-02      5.537e-01      4.673e-01
     1.840e-01      4.473e-01      6.888e-01      2.513e-01      5.414e-02      5.500e-01      4.642e-01
     1.860e-01      4.416e-01      6.831e-01      2.468e-01      5.387e-02      5.414e-01      4.570e-01
     1.880e-01      4.299e-01      6.775e-01      6.964e-01      5.289e-02      5.258e-01      4.439e-01
     1.900e-01      4.125e-01      6.720e-01      7.060e-01      5.120e-02      5.037e-01      4.252e-01
     1.920e-01      3.925e-01      6.665e-01      7.136e-01      4.916e-02      4.786e-01      4.040e-01
     1.940e-01      3.725e-01      6.610e-01      7.190e-01      4.704e-02      4.533e-01      3.827e-01
     1.960e-01      3.524e-01      6.555e-01      7.224e-01      4.489e-02      4.281e-01      3.614e-01
     1.980e-01      3.323e-01      6.500e-01      7.237e-01      4.272e-02      4.033e-01      3.405e-01
     2.000e-01      3.148e-01      6.444e-01      7.231e-01      4.085e-02      3.818e-01      3.223e-01
     2.020e-01      3.013e-01      6.386e-01      7.206e-01      3.942e-02      3.648e-01      3.079e-01
     2.040e-01      2.904e-01      6.329e-01      7.163e-01      3.830e-02      3.510e-01      2.962e-01
     2.060e-01      2.805e-01      6.270e-01      7.102e-01      3.731e-02      3.385e-01      2.857e-01
     2.080e-01      2.711e-01      6.210e-01      7.025e-01      3.639e-02      3.270e-01      2.760e-01
     2.100e-01      2.629e-01      6.150e-01      6.933e-01      3.557e-02      3.166e-01      2.673e-01
     2.120e-01      2.549e-01      6.090e-01      6.826e-01      3.478e-02      3.067e-01      2.589e-01
     2.140e-01      2.464e-01      6.028e-01      6.707e-01      3.392e-02      2.963e-01      2.501e-01
     2.160e-01      2.382e-01      5.967e-01      6.576e-01      3.311e-02      2.866e-01      2.418e-01
     2.180e-01      2.322e-01      5.904e-01      6.434e-01      3.258e-02      2.793e-01      2.357e-01
     2.200e-01      2.294e-01      5.842e-01      6.283e-01      3.240e-02      2.753e-01      2.323e-01
     2.220e-01      2.270e-01      5.779e-01      6.124e-01      3.232e-02      2.721e-01      2.297e-01
     2.240e-01      2.239e-01      5.716e-01      5.959e-01      3.216e-02      2.684e-01      2.265e-01
     2.260e-01      2.203e-01      5.653e-01      5.788e-01      3.192e-02      2.640e-01      2.229e-01
     2.280e-01      2.168e-01      5.590e-01      5.613e-01      3.168e-02      2.597e-01      2.192e-01
     2.300e-01      2.132e-01      5.528e-01      5.435e-01      3.141e-02      2.553e-01      2.155e-01
     2.320e-01      2.095e-01      5.465e-01      5.255e-01      3.113e-02      2.508e-01      2.117e-01
     2.340e-01      2.058e-01      5.403e-01      5.074e-01      3.081e-02      2.461e-01      2.078e-01
     2.360e-01      2.014e-01      5.341e-01      4.894e-01      3.040e-02      2.408e-01      2.033e-01
     2.380e-01      1.962e-01      5.280e-01      4.715e-01      2.988e-02      2.347e-01      1.981e-01
     2.400e-01      1.907e-01      5.220e-01      4.539e-01      2.931e-02      2.283e-01      1.926e-01
     2.420e-01      1.862e-01      5.160e-01      4.366e-01      2.886e-02      2.229e-01      1.880e-01
     2.440e-01      1.829e-01      5.101e-01      4.197e-01      2.856e-02      2.188e-01      1.846e-01
     2.460e-01      1.803e-01      5.043e-01      4.033e-01      2.838e-02      2.157e-01      1.820e-01
     2.480e-01      1.782e-01      4.986e-01      3.874e-01      2.827e-02      2.131e-01      1.798e-01
     2.500e-01      1.765e-01      4.930e-01      3.722e-01      2.825e-02      2.112e-01      1.782e-01
     2.520e-01      1.760e-01      4.875e-01      3.577e-01      2.833e-02      2.102e-01      1.774e-01
     2.540e-01      1.749e-01      4.821e-01      3.438e-01      2.834e-02      2.085e-01      1.762e-01
     2.560e-01      1.719e-01      4.768e-01      3.308e-01      2.808e-02      2.050e-01      1.732e-01
     2.580e-01      1.673e-01      4.717e-01      3.186e-01      2.758e-02      1.998e-01      1.687e-01
     2.600e-01      1.627e-01      4.667e-01      3.072e-01      2.708e-02      1.947e-01      1.642e-01
     2.620e-01      1.595e-01      4.618e-01      2.966e-01      2.673e-02      1.907e-01      1.609e-01
     2.640e-01      1.571e-01      4.570e-01      2.869e-01      2.651e-02      1.877e-01      1.584e-01
     2.660e-01      1.550e-01      4.524e-01      2.781e-01      2.636e-02      1.852e-01      1.563e-01
     2.680e-01      1.534e-01      4.479e-01      2.701e-01      2.630e-02      1.835e-01      1.548e-01
     2.700e-01      1.529e-01      4.436e-01      2.630e-01      2.631e-02      1.822e-01      1.539e-01
     2.720e-01      1.507e-01      4.393e-01      2.568e-01      2.614e-02      1.796e-01      1.518e-01
     2.740e-01      1.470e-01      4.352e-01      2.514e-01      2.576e-02      1.757e-01      1.483e-01
     2.760e-01      1.437e-01      4.312e-01      2.468e-01      2.544e-02      1.723e-01      1.451e-01
     2.780e-01      1.428e-01      4.274e-01      2.430e-01      2.546e-02      1.712e-01      1.442e-01
     2.800e-01      1.443e-01      4.236e-01      2.399e-01      2.580e-02      1.722e-01      1.453e-01
     2.820e-01      1.455e-01      4.200e-01      2.376e-01      2.617e-02      1.735e-01      1.466e-01
     2.840e-01      1.458e-01      4.164e-01      2.359e-01      2.637e-02      1.735e-01      1.467e-01
     2.860e-01      1.442e-01      4.130e-01      2.349e-01      2.626e-02      1.716e-01      1.451e-01
     2.880e-01      1.407e-01      4.097e-01      2.346e-01      2.581e-02      1.675e-01      1.416e-01
     2.900e-01      1.357e-01      4.064e-01      2.347e-01      2.516e-02      1.622e-01      1.368e-01
     2.920e-01      1.311e-01      4.033e-01      2.354e-01      2.462e-02      1.576e-01      1.325e-01
     2.940e-01      1.299e-01      4.002e-01      2.365e-01      2.462e-02      1.565e-01      1.313e-01
     2.960e-01      1.333e-01      3.972e-01      2.381e-01      2.540e-02      1.604e-01      1.346e-01
     2.980e-01      1.406e-01      3.942e-01      2.400e-01      2.687e-02      1.686e-01      1.418e-01
     3.000e-01      1.500e-01      3.913e-01      2.423e-01      2.879e-02      1.794e-01      1.511e-01
     3.020e-01      1.602e-01      3.884e-01      2.448e-01      3.087e-02      1.911e-01      1.613e-01
     3.040e-01      1.698e-01      3.856e-01      2.475e-01      3.292e-02      2.024e-01      1.709e-01
     3.060e-01      1.785e-01      3.828e-01      2.504e-01      3.482e-02      2.127e-01      1.797e-01
     3.080e-01      1.861e-01      3.801e-01      2.534e-01      3.645e-02      2.212e-01      1.871e-01
     3.100e-01      1.908e-01      3.773e-01      2.565e-01      3.763e-02      2.269e-01      1.919e-01
     3.120e-01      1.929e-01      3.746e-01      2.596e-01      3.835e-02      2.298e-01      1.943e-01
     3.140e-01      1.936e-01      3.718e-01      2.627e-01      3.872e-02      2.305e-01      1.949e-01
     3.160e-01      1.925e-01      3.691e-01      2.657e-01      3.874e-02      2.292e-01      1.938e-01
     3.180e-01      1.895e-01      3.663e-01      2.687e-01      3.849e-02      2.262e-01      1.909e-01
     3.200e-01      1.864e-01      3.635e-01      2.716e-01      3.827e-02      2.235e-01      1.882e-01
     3.220e-01      1.861e-01      3.607e-01      2.742e-01      3.846e-02      2.233e-01      1.878e-01
     3.240e-01      1.887e-01      3.579e-01      2.767e-01      3.918e-02      2.260e-01      1.904e-01
     3.260e-01      1.932e-01      3.551e-01      2.790e-01      4.024e-02      2.307e-01      1.946e-01
     3.280e-01      1.977e-01      3.522e-01      2.811e-01      4.134e-02      2.356e-01      1.990e-01
     3.300e-01      2.009e-01      3.492e-01      2.828e-01      4.221e-02      2.391e-01      2.022e-01
     3.320e-01      2.022e-01      3.462e-01      2.843e-01      4.267e-02      2.402e-01      2.034e-01
     3.340e-01      2.005e-01      3.432e-01      2.855e-01      4.262e-02      2.385e-01      2.018e-01
     3.360e-01      1.966e-01      3.401e-01      2.864e-01      4.215e-02      2.345e-01      1.981e-01
     3.380e-01      1.922e-01      3.370e-01      2.869e-01      4.154e-02      2.297e-01      1.938e-01
     3.400e-01      1.885e-01      3.338e-01      2.871e-01      4.093e-02      2.250e-01      1.900e-01
     3.420e-01      1.847e-01      3.306e-01      2.870e-01      4.029e-02      2.202e-01      1.861e-01
     3.440e-01      1.802e-01      3.273e-01      2.865e-01      3.954e-02      2.148e-01      1.816e-01
     3.460e-01      1.750e-01      3.240e-01      2.857e-01      3.861e-02      2.086e-01      1.763e-01
     3.480e-01      1.690e-01      3.206e-01      2.845e-01      3.750e-02      2.014e-01      1.703e-01
     3.500e-01      1.622e-01      3.171e-01      2.830e-01      3.617e-02      1.931e-01      1.633e-01
     3.520e-01      1.542e-01      3.136e-01      2.811e-01      3.464e-02      1.839e-01      1.554e-01
     3.540e-01      1.459e-01      3.101e-01      2.790e-01      3.302e-02      1.743e-01      1.471e-01
     3.560e-01      1.380e-01      3.065e-01      2.765e-01      3.144e-02      1.651e-01      1.392e-01
     3.580e-01      1.308e-01      3.029e-01      2.737e-01      2.999e-02      1.566e-01      1.320e-01
     3.600e-01      1.247e-01      2.992e-01      2.706e-01      2.874e-02      1.492e-01      1.257e-01
     3.620e-01      1.193e-01      2.955e-01      2.672e-01      2.768e-02      1.429e-01      1.204e-01
     3.640e-01      1.149e-01      2.917e-01      2.636e-01      2.681e-02      1.377e-01      1.159e-01
     3.660e-01      1.116e-01      2.879e-01      2.597e-01      2.614e-02      1.335e-01      1.125e-01
     3.680e-01      1.089e-01      2.841e-01      2.556e-01      2.555e-02      1.298e-01      1.098e-01
     3.700e-01      1.058e-01      2.803e-01      2.513e-01      2.484e-02      1.255e-01      1.064e-01
     3.720e-01      1.007e-01      2.764e-01      2.468e-01      2.394e-02      1.203e-01      1.016e-01
     3.740e-01      9.574e-02      2.725e-01      2.421e-01      2.307e-02      1.153e-01      9.674e-02
     3.760e-01      9.280e-02      2.686e-01      2.373e-01      2.256e-02      1.122e-01      9.386e-02
